Data from zc_m1_p3_Reflection_3,txt Node
Date: Wed Nov 25 16:37:31 GMT-03:00 2020
User: Darío
Spectrometer: USB2E3644
Trigger mode: 4
Integration Time (sec): 9,000000E-2
Scans to average: 10
Electric dark correction enabled: true
Nonlinearity correction enabled: false
Boxcar width: 10
XAxis mode: Wavelengths
Number of Pixels in Spectrum: 2048
>>>>>Begin Spectral Data<<<<<
178,315	137,96
178,696	97,25
179,076	98,94
179,457	105,91
179,838	137,5
180,218	219,32
180,599	153,93
180,979	48
181,36	38,78
181,74	39
182,121	62,24
182,501	76,58
182,881	87,7
183,262	96,08
183,642	103,43
184,022	101,62
184,402	113,32
184,783	123,15
185,163	121,4
185,543	123,35
185,923	132,48
186,303	133,06
186,683	127,65
187,063	130,53
187,443	136,11
187,823	134,47
188,203	132,76
188,583	129,48
188,963	126,26
189,343	125,87
189,723	127,09
190,102	128,08
190,482	129,28
190,862	128,92
191,242	128,11
191,621	128,59
192,001	129,63
192,38	124,7
192,76	119,53
193,14	116,8
193,519	114,27
193,898	111,16
194,278	110,95
194,657	112,37
195,037	112,05
195,416	111,84
195,795	113,9
196,175	116,45
196,554	116,92
196,933	116,99
197,312	115,87
197,692	114,42
198,071	113,58
198,45	113,58
198,829	113
199,208	113,24
199,587	114,23
199,966	113,94
200,345	114,47
200,724	113,63
201,103	113,13
201,482	112,69
201,86	110,89
202,239	109,3
202,618	107,74
202,997	106,62
203,375	106,07
203,754	106
204,133	104,64
204,511	103,47
204,89	103,32
205,269	103,58
205,647	104,4
206,026	106,21
206,404	108,14
206,782	110,04
207,161	111,09
207,539	110,8
207,918	111,1
208,296	113,06
208,674	119,21
209,052	124,34
209,431	127,91
209,809	130,52
210,187	132,46
210,565	134,56
210,943	136,78
211,321	135,88
211,699	134,44
212,077	137,7
212,455	142,53
212,833	146,15
213,211	146,66
213,589	148,35
213,967	145,97
214,345	142,23
214,722	142,39
215,1	139,76
215,478	137,75
215,855	137,23
216,233	138,73
216,611	137,07
216,988	133,82
217,366	128,81
217,743	129,05
218,121	127,29
218,498	126,61
218,876	123,45
219,253	125,1
219,631	125,92
220,008	123,36
220,385	122,38
220,762	121,27
221,14	122,42
221,517	121,93
221,894	123,37
222,271	126,19
222,648	126,47
223,025	131,23
223,402	136,32
223,78	136,12
224,157	132,47
224,533	134,96
224,91	134,39
225,287	138,38
225,664	143,92
226,041	150,47
226,418	154,77
226,795	160,97
227,171	162,04
227,548	166,33
227,925	173,34
228,301	171,73
228,678	175,56
229,055	176,48
229,431	177,87
229,808	181,27
230,184	185,71
230,561	190,33
230,937	191,24
231,313	187,35
231,69	193,62
232,066	197,71
232,442	196,31
232,819	208,06
233,195	210,75
233,571	208,79
233,947	211,4
234,323	211,03
234,699	220,11
235,075	218,24
235,451	221,61
235,827	226,71
236,203	239,19
236,579	244,39
236,955	263,35
237,331	288,53
237,707	314,53
238,083	345,85
238,459	429,47
238,834	717,7
239,21	2065,42
239,586	-2610,59
239,961	-859,07
240,337	-607,71
240,713	-448,57
241,088	-340,75
241,464	-285,42
241,839	-246,71
242,215	-200,61
242,59	-161,9
242,965	-118,96
243,341	-87,71
243,716	-67,84
244,091	-57,48
244,467	-50,12
244,842	-46,14
245,217	-43,56
245,592	-42,1
245,967	-42,5
246,343	-41,56
246,718	-42,61
247,093	-44,78
247,468	-46,16
247,843	-46,79
248,218	-44,32
248,593	-43,48
248,967	-43,01
249,342	-41,99
249,717	-41,9
250,092	-43,17
250,467	-44,56
250,841	-48,19
251,216	-53,36
251,591	-59,17
251,965	-65,46
252,34	-72,79
252,714	-75,61
253,089	-77,37
253,463	-77,91
253,838	-73,79
254,212	-71,58
254,587	-68,33
254,961	-64,46
255,335	-58,16
255,71	-48,7
256,084	-39,98
256,458	-33,89
256,832	-28,82
257,206	-26,3
257,581	-24,2
257,955	-22,87
258,329	-21,71
258,703	-20,2
259,077	-19,14
259,451	-18,61
259,825	-17,92
260,199	-17,69
260,572	-18,39
260,946	-18,83
261,32	-19,11
261,694	-19,43
262,068	-19,4
262,441	-18,64
262,815	-17,4
263,189	-17,16
263,562	-17,17
263,936	-18,27
264,309	-18,75
264,683	-19,97
265,056	-20,29
265,43	-20,67
265,803	-19,87
266,176	-19,39
266,55	-19,38
266,923	-19,02
267,296	-18,45
267,67	-18,13
268,043	-17,78
268,416	-16,68
268,789	-15,39
269,162	-13,84
269,535	-12,53
269,908	-11,92
270,281	-12,13
270,654	-12,68
271,027	-12,88
271,4	-13,65
271,773	-14,02
272,146	-14,6
272,519	-14,73
272,891	-14,82
273,264	-14,95
273,637	-15,29
274,01	-15,55
274,382	-15,78
274,755	-15,85
275,127	-16,33
275,5	-16,56
275,872	-16,3
276,245	-16,18
276,617	-16,57
276,99	-17,63
277,362	-18,32
277,734	-17,91
278,107	-17,65
278,479	-17,09
278,851	-16,61
279,223	-15,77
279,596	-15,36
279,968	-15
280,34	-14,54
280,712	-14,22
281,084	-13,57
281,456	-12,86
281,828	-11,84
282,2	-10,82
282,572	-10,09
282,944	-9,2
283,315	-8,71
283,687	-8,34
284,059	-8
284,431	-7,38
284,802	-6,96
285,174	-6,78
285,546	-6,72
285,917	-6,6
286,289	-6,54
286,66	-6,23
287,032	-5,89
287,403	-5,51
287,775	-5,09
288,146	-4,93
288,518	-4,96
288,889	-5,18
289,26	-5,44
289,632	-5,89
290,003	-6,51
290,374	-7,31
290,745	-7,91
291,116	-8,26
291,487	-8,43
291,858	-8,74
292,229	-8,97
292,6	-8,69
292,971	-8,5
293,342	-8,41
293,713	-7,96
294,084	-7,75
294,455	-7,54
294,826	-7,63
295,196	-7,69
295,567	-7,73
295,938	-7,59
296,308	-7,5
296,679	-7,15
297,05	-6,69
297,42	-6,38
297,791	-5,91
298,161	-5,36
298,532	-5,38
298,902	-5,28
299,272	-5,09
299,643	-4,78
300,013	-4,71
300,383	-4,58
300,754	-4,56
301,124	-4,77
301,494	-5,14
301,864	-5,12
302,234	-5,38
302,604	-5,49
302,974	-5,3
303,344	-5,17
303,714	-5,19
304,084	-4,95
304,454	-4,63
304,824	-4,56
305,194	-4,63
305,563	-4,71
305,933	-4,52
306,303	-3,83
306,673	-3,37
307,042	-3,21
307,412	-3,21
307,781	-2,84
308,151	-2,75
308,521	-2,64
308,89	-2,4
309,259	-2,01
309,629	-1,89
309,998	-1,99
310,368	-1,82
310,737	-1,77
311,106	-1,8
311,475	-1,9
311,845	-1,85
312,214	-2,02
312,583	-2,16
312,952	-2,01
313,321	-1,99
313,69	-2,26
314,059	-2,55
314,428	-2,55
314,797	-2,29
315,166	-2,25
315,535	-2,54
315,904	-2,61
316,272	-2,65
316,641	-2,5
317,01	-2,59
317,379	-2,6
317,747	-2,18
318,116	-2,06
318,484	-2,07
318,853	-1,96
319,221	-1,85
319,59	-1,81
319,958	-1,68
320,327	-1,5
320,695	-1,47
321,063	-1,25
321,432	-0,88
321,8	-0,66
322,168	-0,75
322,536	-0,99
322,905	-1,14
323,273	-1,18
323,641	-1,11
324,009	-0,9
324,377	-0,95
324,745	-0,96
325,113	-0,72
325,481	-0,6
325,849	-0,61
326,216	-0,53
326,584	-0,57
326,952	-0,61
327,32	-0,55
327,687	-0,4
328,055	-0,33
328,423	-0,23
328,79	-0,19
329,158	-0,32
329,525	-0,37
329,893	-0,14
330,26	0,22
330,628	0,54
330,995	0,79
331,362	0,9
331,73	0,9
332,097	1,01
332,464	1,23
332,831	1,04
333,199	1,04
333,566	1,17
333,933	1,28
334,3	1,39
334,667	1,65
335,034	1,53
335,401	1,5
335,768	1,49
336,135	1,49
336,502	1,54
336,868	1,68
337,235	1,86
337,602	1,96
337,969	1,81
338,335	1,78
338,702	1,71
339,069	1,66
339,435	1,77
339,802	1,83
340,168	1,86
340,535	2,04
340,901	2,25
341,267	2,23
341,634	2,26
342	2,32
342,366	2,36
342,733	2,45
343,099	2,45
343,465	2,44
343,831	2,47
344,197	2,55
344,563	2,6
344,929	2,54
345,295	2,43
345,661	2,47
346,027	2,55
346,393	2,75
346,759	2,88
347,125	2,91
347,491	2,96
347,856	2,96
348,222	3,02
348,588	2,91
348,953	3,01
349,319	3,07
349,684	3,17
350,05	3,12
350,415	3,16
350,781	3,29
351,146	3,43
351,512	3,48
351,877	3,45
352,242	3,5
352,608	3,59
352,973	3,6
353,338	3,63
353,703	3,63
354,068	3,56
354,433	3,54
354,798	3,57
355,164	3,54
355,528	3,53
355,893	3,49
356,258	3,49
356,623	3,46
356,988	3,42
357,353	3,34
357,718	3,34
358,082	3,36
358,447	3,33
358,812	3,34
359,176	3,41
359,541	3,48
359,905	3,52
360,27	3,5
360,634	3,65
360,999	3,68
361,363	3,7
361,728	3,77
362,092	3,85
362,456	3,87
362,821	3,95
363,185	4,09
363,549	4,17
363,913	4,24
364,277	4,34
364,641	4,44
365,005	4,52
365,369	4,61
365,733	4,71
366,097	4,76
366,461	4,77
366,825	4,84
367,189	4,88
367,553	4,98
367,916	5,09
368,28	5,14
368,644	5,21
369,007	5,3
369,371	5,35
369,734	5,45
370,098	5,51
370,461	5,6
370,825	5,63
371,188	5,65
371,552	5,69
371,915	5,74
372,278	5,81
372,642	5,89
373,005	5,92
373,368	5,95
373,731	6,05
374,094	6,14
374,457	6,2
374,82	6,24
375,183	6,3
375,546	6,36
375,909	6,44
376,272	6,53
376,635	6,61
376,998	6,68
377,361	6,68
377,723	6,72
378,086	6,73
378,449	6,82
378,811	6,91
379,174	7
379,537	7,07
379,899	7,1
380,262	7,11
380,624	7,17
380,987	7,18
381,349	7,19
381,711	7,23
382,074	7,23
382,436	7,27
382,798	7,39
383,16	7,39
383,522	7,37
383,884	7,37
384,247	7,35
384,609	7,4
384,971	7,43
385,333	7,45
385,695	7,49
386,056	7,41
386,418	7,42
386,78	7,45
387,142	7,46
387,504	7,44
387,865	7,45
388,227	7,46
388,589	7,49
388,95	7,5
389,312	7,51
389,673	7,55
390,035	7,54
390,396	7,4
390,758	7,42
391,119	7,44
391,48	7,42
391,842	7,41
392,203	7,35
392,564	7,37
392,925	7,39
393,286	7,37
393,648	7,41
394,009	7,4
394,37	7,41
394,731	7,43
395,092	7,42
395,452	7,47
395,813	7,49
396,174	7,51
396,535	7,53
396,896	7,55
397,257	7,55
397,617	7,57
397,978	7,66
398,338	7,67
398,699	7,7
399,06	7,74
399,42	7,75
399,781	7,79
400,141	7,76
400,501	7,74
400,862	7,79
401,222	7,78
401,582	7,77
401,943	7,71
402,303	7,72
402,663	7,76
403,023	7,72
403,383	7,74
403,743	7,76
404,103	7,75
404,463	7,73
404,823	7,75
405,183	7,78
405,543	7,75
405,903	7,75
406,262	7,7
406,622	7,68
406,982	7,69
407,342	7,71
407,701	7,75
408,061	7,79
408,42	7,76
408,78	7,77
409,139	7,77
409,499	7,78
409,858	7,77
410,217	7,77
410,577	7,78
410,936	7,75
411,295	7,74
411,655	7,71
412,014	7,69
412,373	7,65
412,732	7,6
413,091	7,54
413,45	7,5
413,809	7,49
414,168	7,43
414,527	7,37
414,886	7,31
415,245	7,27
415,603	7,21
415,962	7,18
416,321	7,15
416,679	7,1
417,038	7,06
417,397	7
417,755	6,95
418,114	6,92
418,472	6,91
418,831	6,88
419,189	6,85
419,547	6,82
419,906	6,81
420,264	6,78
420,622	6,77
420,981	6,76
421,339	6,74
421,697	6,74
422,055	6,76
422,413	6,76
422,771	6,76
423,129	6,77
423,487	6,81
423,845	6,84
424,203	6,87
424,56	6,9
424,918	6,93
425,276	6,97
425,634	7
425,991	7,02
426,349	7,06
426,707	7,12
427,064	7,17
427,422	7,21
427,779	7,28
428,137	7,33
428,494	7,39
428,851	7,43
429,209	7,44
429,566	7,45
429,923	7,47
430,28	7,47
430,637	7,45
430,995	7,42
431,352	7,4
431,709	7,39
432,066	7,4
432,423	7,38
432,78	7,38
433,137	7,37
433,493	7,35
433,85	7,35
434,207	7,31
434,564	7,29
434,92	7,26
435,277	7,25
435,634	7,23
435,99	7,21
436,347	7,18
436,703	7,18
437,06	7,16
437,416	7,18
437,773	7,17
438,129	7,17
438,485	7,19
438,841	7,18
439,198	7,17
439,554	7,17
439,91	7,21
440,266	7,19
440,622	7,19
440,978	7,19
441,334	7,16
441,69	7,16
442,046	7,15
442,402	7,14
442,758	7,13
443,113	7,11
443,469	7,11
443,825	7,12
444,181	7,12
444,536	7,14
444,892	7,13
445,247	7,14
445,603	7,15
445,958	7,14
446,314	7,15
446,669	7,16
447,025	7,14
447,38	7,13
447,735	7,15
448,09	7,14
448,446	7,16
448,801	7,18
449,156	7,2
449,511	7,23
449,866	7,25
450,221	7,28
450,576	7,31
450,931	7,36
451,286	7,38
451,641	7,41
451,995	7,44
452,35	7,46
452,705	7,46
453,06	7,46
453,414	7,47
453,769	7,48
454,123	7,49
454,478	7,5
454,832	7,5
455,187	7,47
455,541	7,48
455,896	7,44
456,25	7,42
456,604	7,4
456,958	7,37
457,313	7,35
457,667	7,33
458,021	7,34
458,375	7,32
458,729	7,35
459,083	7,36
459,437	7,36
459,791	7,37
460,145	7,38
460,499	7,39
460,852	7,39
461,206	7,4
461,56	7,4
461,914	7,4
462,267	7,41
462,621	7,42
462,974	7,44
463,328	7,48
463,681	7,49
464,035	7,51
464,388	7,53
464,742	7,56
465,095	7,59
465,448	7,6
465,801	7,59
466,155	7,59
466,508	7,59
466,861	7,58
467,214	7,56
467,567	7,56
467,92	7,55
468,273	7,57
468,626	7,55
468,979	7,54
469,332	7,53
469,684	7,53
470,037	7,54
470,39	7,54
470,743	7,55
471,095	7,56
471,448	7,6
471,8	7,63
472,153	7,63
472,505	7,65
472,858	7,66
473,21	7,68
473,562	7,68
473,915	7,67
474,267	7,68
474,619	7,69
474,971	7,68
475,324	7,68
475,676	7,68
476,028	7,68
476,38	7,7
476,732	7,73
477,084	7,75
477,436	7,74
477,787	7,72
478,139	7,7
478,491	7,7
478,843	7,65
479,195	7,64
479,546	7,61
479,898	7,54
480,249	7,45
480,601	7,4
480,952	7,35
481,304	7,33
481,655	7,31
482,007	7,29
482,358	7,28
482,709	7,28
483,061	7,27
483,412	7,26
483,763	7,25
484,114	7,22
484,465	7,19
484,816	7,18
485,167	7,17
485,518	7,16
485,869	7,16
486,22	7,16
486,571	7,17
486,922	7,18
487,272	7,19
487,623	7,21
487,974	7,22
488,324	7,23
488,675	7,23
489,025	7,24
489,376	7,25
489,726	7,25
490,077	7,26
490,427	7,26
490,778	7,28
491,128	7,3
491,478	7,33
491,828	7,39
492,179	7,41
492,529	7,44
492,879	7,47
493,229	7,48
493,579	7,49
493,929	7,47
494,279	7,47
494,629	7,47
494,979	7,5
495,328	7,53
495,678	7,57
496,028	7,61
496,378	7,63
496,727	7,66
497,077	7,69
497,426	7,72
497,776	7,74
498,125	7,74
498,475	7,73
498,824	7,72
499,174	7,72
499,523	7,72
499,872	7,72
500,221	7,72
500,571	7,74
500,92	7,74
501,269	7,78
501,618	7,78
501,967	7,79
502,316	7,8
502,665	7,81
503,014	7,83
503,363	7,83
503,711	7,85
504,06	7,84
504,409	7,82
504,758	7,77
505,106	7,77
505,455	7,77
505,803	7,77
506,152	7,78
506,5	7,78
506,849	7,79
507,197	7,8
507,546	7,8
507,894	7,81
508,242	7,81
508,59	7,79
508,939	7,79
509,287	7,79
509,635	7,78
509,983	7,78
510,331	7,79
510,679	7,79
511,027	7,78
511,375	7,81
511,723	7,84
512,07	7,86
512,418	7,86
512,766	7,89
513,114	7,91
513,461	7,92
513,809	7,93
514,156	7,92
514,504	7,91
514,851	7,9
515,199	7,88
515,546	7,88
515,893	7,87
516,241	7,87
516,588	7,88
516,935	7,9
517,282	7,88
517,63	7,89
517,977	7,88
518,324	7,9
518,671	7,9
519,018	7,88
519,365	7,88
519,711	7,88
520,058	7,87
520,405	7,85
520,752	7,84
521,099	7,84
521,445	7,86
521,792	7,87
522,138	7,89
522,485	7,89
522,832	7,88
523,178	7,87
523,524	7,89
523,871	7,87
524,217	7,86
524,563	7,84
524,91	7,8
525,256	7,75
525,602	7,7
525,948	7,67
526,294	7,66
526,64	7,64
526,986	7,64
527,332	7,62
527,678	7,62
528,024	7,61
528,37	7,62
528,716	7,59
529,061	7,59
529,407	7,59
529,753	7,6
530,098	7,6
530,444	7,6
530,789	7,6
531,135	7,6
531,48	7,61
531,826	7,62
532,171	7,64
532,516	7,67
532,862	7,69
533,207	7,72
533,552	7,74
533,897	7,77
534,242	7,8
534,587	7,82
534,932	7,85
535,277	7,87
535,622	7,87
535,967	7,9
536,312	7,92
536,657	7,93
537,001	7,95
537,346	7,96
537,691	7,97
538,035	7,94
538,38	7,93
538,724	7,89
539,069	7,89
539,413	7,89
539,758	7,88
540,102	7,89
540,446	7,87
540,791	7,87
541,135	7,87
541,479	7,86
541,823	7,84
542,167	7,83
542,512	7,84
542,856	7,82
543,2	7,81
543,543	7,79
543,887	7,79
544,231	7,8
544,575	7,8
544,919	7,82
545,262	7,86
545,606	7,88
545,95	7,9
546,293	7,93
546,637	7,93
546,98	7,96
547,324	7,97
547,667	8,01
548,011	8,01
548,354	8,01
548,697	8
549,04	8,02
549,384	8,01
549,727	7,99
550,07	8,01
550,413	8,01
550,756	8,01
551,099	8,01
551,442	7,96
551,785	7,97
552,128	7,94
552,47	7,93
552,813	7,93
553,156	7,93
553,499	7,91
553,841	7,9
554,184	7,86
554,526	7,85
554,869	7,81
555,211	7,8
555,554	7,78
555,896	7,79
556,238	7,75
556,581	7,73
556,923	7,71
557,265	7,73
557,607	7,73
557,949	7,72
558,291	7,7
558,633	7,72
558,975	7,67
559,317	7,65
559,659	7,64
560,001	7,62
560,343	7,61
560,685	7,58
561,026	7,57
561,368	7,57
561,71	7,55
562,051	7,53
562,393	7,55
562,734	7,52
563,076	7,48
563,417	7,49
563,759	7,48
564,1	7,48
564,441	7,46
564,782	7,44
565,124	7,42
565,465	7,39
565,806	7,38
566,147	7,41
566,488	7,42
566,829	7,38
567,17	7,36
567,511	7,37
567,851	7,36
568,192	7,32
568,533	7,29
568,874	7,28
569,214	7,27
569,555	7,25
569,895	7,26
570,236	7,25
570,576	7,21
570,917	7,19
571,257	7,16
571,598	7,15
571,938	7,13
572,278	7,12
572,618	7,14
572,959	7,13
573,299	7,08
573,639	7,06
573,979	7,05
574,319	7,06
574,659	7,03
574,999	7,02
575,339	7
575,678	6,99
576,018	6,95
576,358	6,94
576,698	6,9
577,037	6,89
577,377	6,89
577,716	6,9
578,056	6,9
578,395	6,89
578,735	6,87
579,074	6,88
579,413	6,86
579,753	6,83
580,092	6,82
580,431	6,83
580,77	6,83
581,109	6,81
581,448	6,76
581,787	6,76
582,126	6,76
582,465	6,77
582,804	6,79
583,143	6,83
583,482	6,83
583,82	6,84
584,159	6,83
584,498	6,84
584,836	6,84
585,175	6,81
585,514	6,81
585,852	6,81
586,19	6,82
586,529	6,82
586,867	6,83
587,205	6,82
587,544	6,83
587,882	6,82
588,22	6,83
588,558	6,85
588,896	6,89
589,234	6,89
589,572	6,9
589,91	6,9
590,248	6,88
590,586	6,88
590,924	6,88
591,262	6,9
591,599	6,9
591,937	6,9
592,275	6,93
592,612	6,93
592,95	6,92
593,287	6,92
593,625	6,95
593,962	6,96
594,299	7
594,637	7,03
594,974	7,05
595,311	7,05
595,648	7,07
595,985	7,04
596,322	7,04
596,659	7,04
596,996	7,04
597,333	7,04
597,67	7,03
598,007	7,02
598,344	7,01
598,681	7
599,017	6,98
599,354	6,97
599,691	6,99
600,027	7
600,364	7,02
600,7	7
601,037	7,01
601,373	7,01
601,71	6,99
602,046	7,03
602,382	7,03
602,718	7,01
603,054	7,02
603,391	7,02
603,727	7,02
604,063	7,03
604,399	7,04
604,735	7,05
605,071	7,08
605,406	7,1
605,742	7,1
606,078	7,13
606,414	7,13
606,749	7,13
607,085	7,14
607,421	7,12
607,756	7,14
608,092	7,13
608,427	7,13
608,762	7,12
609,098	7,09
609,433	7,07
609,768	7,07
610,104	7,07
610,439	7,07
610,774	7,07
611,109	7,07
611,444	7,07
611,779	7,08
612,114	7,06
612,449	7,05
612,784	7,07
613,118	7,05
613,453	7,07
613,788	7,04
614,123	7,01
614,457	6,98
614,792	6,95
615,126	6,91
615,461	6,84
615,795	6,8
616,13	6,77
616,464	6,79
616,798	6,82
617,132	6,84
617,467	6,85
617,801	6,83
618,135	6,81
618,469	6,81
618,803	6,81
619,137	6,8
619,471	6,77
619,805	6,76
620,139	6,74
620,472	6,72
620,806	6,73
621,14	6,71
621,473	6,73
621,807	6,72
622,141	6,76
622,474	6,79
622,808	6,82
623,141	6,83
623,474	6,84
623,808	6,84
624,141	6,85
624,474	6,84
624,807	6,84
625,141	6,87
625,474	6,85
625,807	6,86
626,14	6,87
626,473	6,9
626,806	6,91
627,138	6,94
627,471	6,95
627,804	6,94
628,137	6,96
628,469	6,96
628,802	7,01
629,135	7,02
629,467	7,06
629,8	7,09
630,132	7,11
630,465	7,09
630,797	7,06
631,129	7,06
631,461	7,06
631,794	7,1
632,126	7,08
632,458	7,08
632,79	7,08
633,122	7,11
633,454	7,12
633,786	7,1
634,118	7,16
634,45	7,18
634,781	7,2
635,113	7,22
635,445	7,26
635,777	7,25
636,108	7,24
636,44	7,19
636,771	7,2
637,103	7,2
637,434	7,21
637,765	7,23
638,097	7,21
638,428	7,19
638,759	7,13
639,09	7,13
639,422	7,14
639,753	7,11
640,084	7,05
640,415	7,01
640,746	6,99
641,077	6,91
641,407	6,87
641,738	6,82
642,069	6,8
642,4	6,74
642,73	6,73
643,061	6,75
643,392	6,74
643,722	6,72
644,053	6,75
644,383	6,79
644,713	6,8
645,044	6,82
645,374	6,84
645,704	6,88
646,034	6,9
646,365	6,9
646,695	6,94
647,025	6,97
647,355	7,03
647,685	7,1
648,015	7,13
648,344	7,17
648,674	7,21
649,004	7,27
649,334	7,31
649,663	7,35
649,993	7,36
650,323	7,37
650,652	7,39
650,982	7,34
651,311	7,3
651,64	7,28
651,97	7,23
652,299	7,21
652,628	7,22
652,958	7,23
653,287	7,26
653,616	7,24
653,945	7,24
654,274	7,21
654,603	7,19
654,932	7,2
655,261	7,22
655,589	7,25
655,918	7,25
656,247	7,3
656,576	7,36
656,904	7,37
657,233	7,42
657,561	7,42
657,89	7,42
658,218	7,48
658,547	7,53
658,875	7,59
659,203	7,6
659,532	7,59
659,86	7,61
660,188	7,61
660,516	7,59
660,844	7,6
661,172	7,58
661,5	7,56
661,828	7,56
662,156	7,55
662,484	7,53
662,811	7,48
663,139	7,4
663,467	7,32
663,794	7,3
664,122	7,27
664,45	7,26
664,777	7,28
665,104	7,24
665,432	7,15
665,759	7,1
666,086	7,13
666,414	7,17
666,741	7,12
667,068	7,13
667,395	7,18
667,722	7,22
668,049	7,24
668,376	7,22
668,703	7,19
669,03	7,2
669,357	7,24
669,683	7,27
670,01	7,28
670,337	7,3
670,663	7,27
670,99	7,29
671,317	7,29
671,643	7,3
671,969	7,3
672,296	7,31
672,622	7,33
672,948	7,3
673,275	7,27
673,601	7,27
673,927	7,27
674,253	7,28
674,579	7,26
674,905	7,29
675,231	7,35
675,557	7,37
675,883	7,37
676,209	7,43
676,534	7,46
676,86	7,54
677,186	7,54
677,511	7,59
677,837	7,62
678,162	7,63
678,488	7,63
678,813	7,69
679,139	7,75
679,464	7,8
679,789	7,79
680,114	7,84
680,44	7,87
680,765	7,89
681,09	7,88
681,415	7,89
681,74	7,88
682,065	7,91
682,39	7,93
682,714	7,88
683,039	7,8
683,364	7,81
683,689	7,81
684,013	7,82
684,338	7,8
684,662	7,82
684,987	7,82
685,311	7,83
685,636	7,8
685,96	7,79
686,284	7,7
686,608	7,75
686,933	7,74
687,257	7,77
687,581	7,72
687,905	7,71
688,229	7,71
688,553	7,65
688,877	7,62
689,201	7,62
689,524	7,71
689,848	7,82
690,172	7,82
690,496	7,81
690,819	7,79
691,143	7,82
691,466	7,81
691,79	7,85
692,113	7,88
692,436	7,92
692,76	7,95
693,083	8,02
693,406	8,05
693,729	8,05
694,053	7,99
694,376	8,02
694,699	8,06
695,022	8,06
695,344	8,09
695,667	8,13
695,99	8,2
696,313	8,23
696,636	8,22
696,958	8,2
697,281	8,2
697,604	8,26
697,926	8,24
698,249	8,17
698,571	8,09
698,893	8
699,216	7,95
699,538	7,95
699,86	7,95
700,182	7,93
700,504	7,93
700,827	7,94
701,149	7,93
701,471	7,97
701,793	8,04
702,114	8,12
702,436	8,14
702,758	8,09
703,08	8,01
703,401	7,88
703,723	7,89
704,045	7,9
704,366	7,87
704,688	7,86
705,009	7,94
705,331	8,05
705,652	8,08
705,973	8,09
706,294	8,13
706,616	8,22
706,937	8,26
707,258	8,22
707,579	8,25
707,9	8,25
708,221	8,19
708,542	8,09
708,863	8,02
709,183	7,92
709,504	7,88
709,825	7,89
710,145	8
710,466	8,07
710,787	8,07
711,107	8,07
711,427	8,17
711,748	8,22
712,068	8,22
712,388	8,34
712,709	8,4
713,029	8,32
713,349	8,2
713,669	8,2
713,989	8,28
714,309	8,34
714,629	8,34
714,949	8,37
715,269	8,39
715,589	8,47
715,908	8,54
716,228	8,61
716,548	8,68
716,867	8,66
717,187	8,65
717,506	8,68
717,826	8,75
718,145	8,84
718,465	8,9
718,784	8,98
719,103	9,05
719,422	9,09
719,741	9,15
720,061	9,35
720,38	9,46
720,699	9,49
721,018	9,58
721,336	9,77
721,655	9,95
721,974	10,11
722,293	10,19
722,612	10,26
722,93	10,3
723,249	10,34
723,567	10,45
723,886	10,52
724,204	10,65
724,523	10,79
724,841	10,89
725,159	10,98
725,477	11,03
725,796	11,1
726,114	11,16
726,432	11,36
726,75	11,48
727,068	11,51
727,386	11,55
727,704	11,57
728,022	11,64
728,339	11,69
728,657	11,78
728,975	11,93
729,292	12,11
729,61	12,28
729,928	12,42
730,245	12,49
730,562	12,56
730,88	12,6
731,197	12,62
731,514	12,63
731,832	12,69
732,149	12,88
732,466	13,06
732,783	13,2
733,1	13,29
733,417	13,32
733,734	13,46
734,051	13,71
734,368	13,84
734,684	13,93
735,001	13,99
735,318	14,04
735,634	14,03
735,951	14,05
736,268	14,09
736,584	14,18
736,9	14,25
737,217	14,39
737,533	14,57
737,849	14,71
738,166	14,88
738,482	15
738,798	15,1
739,114	15,13
739,43	15,27
739,746	15,27
740,062	15,4
740,378	15,54
740,693	15,52
741,009	15,6
741,325	15,67
741,641	15,74
741,956	15,92
742,272	16,04
742,587	16,11
742,903	16,27
743,218	16,47
743,533	16,71
743,849	16,8
744,164	16,9
744,479	16,87
744,794	16,87
745,109	16,94
745,424	16,89
745,739	16,83
746,054	16,96
746,369	17,12
746,684	17,19
746,999	17,24
747,313	17,42
747,628	17,53
747,943	17,6
748,257	17,6
748,572	17,6
748,886	17,65
749,201	17,89
749,515	17,9
749,829	17,88
750,144	17,8
750,458	17,8
750,772	17,7
751,086	17,8
751,4	17,77
751,714	17,75
752,028	17,87
752,342	18,01
752,656	17,95
752,97	17,87
753,284	17,86
753,597	17,81
753,911	17,75
754,225	17,82
754,538	17,93
754,852	18,04
755,165	18,11
755,478	18,07
755,792	17,84
756,105	18,01
756,418	17,99
756,731	18,04
757,045	18,13
757,358	18,17
757,671	18,08
757,984	18,16
758,297	18,22
758,609	18,2
758,922	18,25
759,235	18,25
759,548	18,29
759,86	18,37
760,173	18,17
760,486	18,07
760,798	17,85
761,111	17,6
761,423	17,59
761,735	17,54
762,048	17,66
762,36	17,72
762,672	17,62
762,984	17,66
763,296	17,67
763,608	17,64
763,92	17,67
764,232	17,78
764,544	17,92
764,856	18,06
765,168	18,22
765,48	18,36
765,791	18,49
766,103	18,73
766,414	18,82
766,726	19,1
767,037	19,34
767,349	19,68
767,66	20,14
767,972	20,47
768,283	20,87
768,594	21,06
768,905	21,24
769,216	21,35
769,527	21,48
769,838	21,73
770,149	22,02
770,46	22,37
770,771	22,76
771,082	23,11
771,393	23,18
771,703	23,3
772,014	23,39
772,324	23,47
772,635	23,34
772,945	23,64
773,256	24,03
773,566	24,2
773,877	24,29
774,187	24,38
774,497	24,56
774,807	24,7
775,117	25,08
775,427	25,4
775,737	25,73
776,047	25,93
776,357	26,27
776,667	26,45
776,977	26,61
777,287	26,52
777,596	26,3
777,906	26,44
778,216	26,25
778,525	26,11
778,835	26,3
779,144	26,42
779,453	26,28
779,763	26,07
780,072	26,28
780,381	26,58
780,69	26,85
781	26,79
781,309	26,85
781,618	27,03
781,927	27,47
782,235	27,8
782,544	28,14
782,853	28,19
783,162	28,24
783,471	28,37
783,779	28,46
784,088	28,66
784,396	28,77
784,705	28,96
785,013	29,07
785,322	29,07
785,63	29,02
785,938	28,93
786,246	28,75
786,554	28,65
786,863	28,35
787,171	28,17
787,479	28,25
787,787	28,3
788,094	28,14
788,402	27,65
788,71	27,43
789,018	27,19
789,326	27,16
789,633	27,35
789,941	27,26
790,248	27,29
790,556	27,24
790,863	27,26
791,171	27,51
791,478	27,73
791,785	27,74
792,092	27,89
792,399	28,11
792,707	28,58
793,014	28,72
793,321	28,96
793,628	28,92
793,934	29,09
794,241	28,94
794,548	28,97
794,855	29,22
795,161	29,38
795,468	29,4
795,775	29,45
796,081	29,41
796,388	29,51
796,694	29,5
797	29,47
797,307	29,58
797,613	29,64
797,919	29,67
798,225	29,88
798,531	30,09
798,837	30,35
799,143	30,48
799,449	30,59
799,755	30,89
800,061	31,03
800,367	30,96
800,672	31,09
800,978	31,14
801,284	31,26
801,589	31,14
801,895	31,26
802,2	31,16
802,506	31,2
802,811	31,32
803,116	31,44
803,421	31,78
803,727	31,94
804,032	31,79
804,337	31,85
804,642	31,64
804,947	32,01
805,252	32,04
805,556	32,27
805,861	32,69
806,166	32,84
806,471	32,91
806,775	32,93
807,08	33,21
807,384	33,25
807,689	33,3
807,993	33,63
808,298	33,91
808,602	34,4
808,906	34,45
809,211	34,88
809,515	35,14
809,819	35,16
810,123	35,18
810,427	35,44
810,731	35,44
811,035	35,76
811,338	35,66
811,642	36,04
811,946	35,79
812,25	35,3
812,553	34,92
812,857	34,94
813,16	35,26
813,464	35,36
813,767	35,55
814,07	35,95
814,374	35,91
814,677	35,81
814,98	35,67
815,283	35,4
815,586	34,83
815,889	34,54
816,192	34,56
816,495	34,11
816,798	33,56
817,101	33,55
817,404	32,92
817,706	32,07
818,009	30,95
818,312	30,44
818,614	29,87
818,917	28,45
819,219	26,52
819,521	24,47
819,824	22,54
820,126	21,17
820,428	20,06
820,73	19,47
821,032	19,06
821,334	18,8
821,636	18,69
821,938	18,55
822,24	18,48
822,542	18,4
822,844	18,37
823,145	18,31
823,447	18,15
823,749	18,16
824,05	18,15
824,352	18,14
824,653	18
824,955	17,95
825,256	18,06
825,557	18,36
825,858	18,69
826,16	19,23
826,461	19,7
826,762	20,14
827,063	20,52
827,364	20,95
827,665	21,31
827,965	21,72
828,266	22,23
828,567	22,61
828,868	22,92
829,168	23,15
829,469	23,38
829,769	23,59
830,07	23,85
830,37	24,28
830,67	24,67
830,971	25,22
831,271	25,59
831,571	26,13
831,871	26,21
832,171	26,52
832,471	26,46
832,771	26,77
833,071	27,13
833,371	27,36
833,671	27,53
833,971	27,75
834,27	27,63
834,57	27,51
834,869	27,51
835,169	27,63
835,468	27,87
835,768	28,09
836,067	28,51
836,367	28,94
836,666	29,27
836,965	29,79
837,264	30,31
837,563	31,07
837,862	31,37
838,161	32,18
838,46	32,81
838,759	33,76
839,058	34,54
839,356	35,4
839,655	36,16
839,954	36,91
840,252	37,57
840,551	38,86
840,849	39,81
841,148	40,67
841,446	41,48
841,744	41,78
842,043	42,4
842,341	42,75
842,639	42,62
842,937	42,87
843,235	43,27
843,533	43,94
843,831	44,18
844,129	45,01
844,427	45,95
844,724	47,07
845,022	47,92
845,32	48,61
845,617	49,32
845,915	49,91
846,212	50,57
846,51	51,52
846,807	52
847,104	52,31
847,402	52,41
847,699	52,13
847,996	52,67
848,293	53,13
848,59	53,51
848,887	54,57
849,184	55,37
849,481	55,61
849,778	56,11
850,074	57,18
850,371	57,42
850,668	57,76
850,964	58,02
851,261	57,77
851,557	57,72
851,854	57,75
852,15	58,88
852,446	59,78
852,743	59,66
853,039	58,91
853,335	58,72
853,631	58,69
853,927	58,14
854,223	58,32
854,519	58,45
854,815	58,2
855,111	57,47
855,406	56,85
855,702	56,72
855,998	56,29
856,293	56,23
856,589	56,81
856,884	57,09
857,18	57,14
857,475	57,38
857,77	58,38
858,066	58,78
858,361	58,75
858,656	58,26
858,951	58,88
859,246	58,87
859,541	59,44
859,836	60,4
860,131	61,97
860,426	62,04
860,72	61,95
861,015	61,97
861,31	62,43
861,604	62,27
861,899	62,59
862,193	63,22
862,487	63,75
862,782	64,49
863,076	64,28
863,37	64,36
863,664	65,36
863,959	65,41
864,253	66,3
864,547	65,69
864,841	65,46
865,135	64,12
865,428	64,21
865,722	63,58
866,016	62,76
866,31	61,82
866,603	61,67
866,897	61,66
867,19	63,21
867,484	63,45
867,777	64,64
868,07	64,7
868,364	64,43
868,657	64,26
868,95	63,89
869,243	64,35
869,536	63,54
869,829	62,7
870,122	62,23
870,415	60,61
870,708	60,35
871	60,13
871,293	60,66
871,586	60,57
871,878	61,01
872,171	61,1
872,463	61,52
872,756	60,67
873,048	59,94
873,341	58,56
873,633	57,61
873,925	56,3
874,217	55,87
874,509	55,28
874,801	54,38
875,093	53,32
875,385	52,14
875,677	52,56
875,969	52,02
